-0.00887365
-0.0056926147
-0.0068639503
-0.0053405445
-0.0038723974
-0.0026295092
-0.0010118799
8.204907E-4
0.002639973
0.003611826
0.00473605
0.0036279028
0.0029973853
0.0012721265
0.0031716088
0.0030110914
-2.2890868E-4
-0.0020760205
-0.0025031322
-0.0031526147
-0.0036544679
-0.0033639502
-0.0031834326
-0.004737656
-0.0048118797
-0.0012066211
-3.066211E-4
4.2574952E-4
0.0034476025
0.0024747143
6.6708494E-4
0.0020241968
0.0020713087
0.0016960498
6.5842044E-4
-5.339502E-4
-1.7395019E-4
-0.001991062
-0.0022381737
-0.0029476562
-0.0043218797
-0.0025889918
-0.0034808447
-0.0029703272
-8.926978E-4
-2.3269776E-4
6.7967287E-4
0.0020067848
0.0036886376
0.0048028613
0.004767085
0.0042513087
0.0025784203
0.0016031616
0.0011355323
1.5532227E-5
-8.5683836E-4
-5.49209E-4
-0.0010815796
-0.0013263208
-4.486914E-4
-4.8106202E-4
-3.01062E-4
-0.0012058032
-0.002562915
7.094556E-4
0.003178938
0.004463162
0.0037450145
0.004329238
0.0045334618
0.0045776856
0.0029971679
0.0033166504
0.0026437622
0.002340874
-0.0021662377
-0.0033857203
-0.0036175733
-7.8994385E-4
-0.0014946851
-0.0033941674
-0.0017389087
-7.212793E-4
-0.0030407617
0.0012039795
0.0027734619
0.0029729444
0.0036547973
0.004219021
0.0030085035
0.0028479858
0.001442727
0.001989839
6.3220947E-4
-0.0029972729
-0.0023843849
-0.0027538673
-0.0037857203
-0.0038475732
-0.0030770556
-0.0060960203
-0.006987356
-0.00544395
-0.009052398
-0.012230327
-1.3032714E-4
9.2204346E-4
0.0034038965
0.0026110082
0.0027704907
0.005077085
0.0052936794
0.0018784204
5.2079104E-4
-5.715796E-4
-5.439502E-4
-6.063208E-4
-0.0020034327
-0.003352915
-0.003844768
-0.005391362
-0.0041032154
-0.0052398094
-0.0040816627
-0.002901145
-0.002578257
-0.001862998
8.700195E-5
1.5700195E-4
0.0012517432
0.0010541137
0.0010064844
5.6484376E-5
-7.658862E-4
-0.0022329981
-0.0041772216
-0.003979075
-0.0061480394
-0.006519375
-0.0074630813
-0.006302046
-0.0055686403
-0.0036504932
-0.0027399757
-0.0010123462
-4.247168E-4
9.476538E-4
4.800244E-4
0.0016447656
0.0040566185
0.0041708425
0.0013655835
0.0010479541
-0.0017467871
-0.0052133813
-0.0023604932
-0.0045947167
-0.0043089404
-0.006470276
-0.0070016114
-0.005740576
-0.0054771705
-0.0056661353
-0.004390359
-0.0022974708
-1.4747071E-4
-0.0020445825
-0.0018916944
9.1067626E-4
0.0019177881
0.0014525293
0.0016172705
-4.8510008E-4
-7.674707E-4
-0.0018022119
-0.0030716944
-0.0030911767
-0.004977771
-0.006026736
-0.008222813
-0.008138889
-0.004393113
-0.0058320775
-0.0059210425
-0.0039228955
-0.0021900074
-0.0015947486
-2.9474855E-4
0.0017099926
0.0033594752
0.0036013282
0.0021184399
8.008105E-4
3.0081056E-4
-3.1918945E-4
-0.0024263014
-0.0035881542
-0.0038100074
-0.0039218604
-0.0030813427
-0.0043155663
-0.0055521606
-0.0057311254
-0.0022182374
-0.0020153492
-9.977197E-4
5.2280273E-5
8.5465086E-4
0.0025717628
0.0015765039
8.688745E-4
0.0020159862
9.083569E-4
9.5072755E-4
8.230981E-4
-0.001291643
-0.0010940137
-0.0015887549
-0.003950608
-0.0046848315
-0.0040166844
-0.003306167
-0.0033356494
-0.0026027611
-0.0032322437
-0.0025793554
-5.0172606E-4
0.0028177563
0.0016324975
9.348682E-4
-6.2750245E-4
-0.008293579
-0.0072872853
0.001227456
-0.0012272851
-7.7965576E-4
3.5034423E-4
-0.001224397
-0.0025315087
-0.0024686207
-0.0024857323
-0.0023028443
-0.0015575854
-8.9995604E-4
6.7241455E-4
1.3241456E-4
6.9478515E-4
0.002421897
0.00398375
0.0032032323
0.0039350856
0.0025921972
0.0011669385
0.0011293091
-3.806909E-4
-7.030615E-4
-0.002722544
-0.0045467676
-0.0044009914
-0.0038528442
-0.0050194385
-0.0050160326
-0.0043002563
-0.00440448
-0.0020915917
6.9077883E-4
0.00173552
0.0025326319
0.0030221143
0.0031915966
0.0032710792
0.0015058203
0.0018805615
0.0011753028
-1.7469727E-4
-0.0010170678
-4.6943847E-4
-0.0028389208
-0.0043431446
-0.0036449975
-0.00287448
-0.0043287035
-0.0038905567
-0.0034424097
-7.2478026E-4
0.0018099609
0.0015647021
0.003486555
0.002023667
0.0026731493
0.004647373
0.003719226
0.002646338
0.0016110791
0.0021881908
-4.741797E-4
-0.0020112914
-0.0029607739
-0.0032402563
-0.003942109
-0.0032615918
-0.0031610741
-0.002268186
-7.3055667E-4
-0.0011752979
8.0707273E-4
0.0019041846
0.0024212964
0.00463552
0.0026126318
0.003504485
0.0042987084
0.002688191
0.0029176734
0.002384785
0.002411897
8.342676E-4
-4.8810302E-4
-0.0010804737
-0.0014952149
4.7851563E-6
-0.001789956
-0.0021470678
-5.4943847E-4
0.0010329321
0.0026400439
0.0032795263
0.0037313793
0.004275603
0.0025327147
0.0066240504
0.006975386
0.00528198
0.004023833
0.0016185743
8.9094485E-4
0.0016256861
0.0011704272
-0.0010419433
-0.0021990552
-7.214258E-4
-5.5379636E-4
-1.4379638E-4
5.885742E-4
5.509448E-4
0.001405686
0.0025627979
0.0012775391
0.0026670215
0.0054736156
0.003213098
0.003954951
0.004096804
0.0033862866
0.0013310278
-6.897217E-5
-0.0015737134
-0.0027531958
-0.00518979
-0.010762978
-0.011648538
-0.0018832788
-0.0027227611
-0.0027022436
-0.0013469849
0.0011253858
0.0019524975
0.0038243507
0.003113833
0.0041680564
0.0061570215
0.0037788744
0.0038107275
0.0034625805
8.749512E-4
6.073218E-4
-0.0010750488
-0.0024621605
-0.0019692725
-6.7164307E-4
-4.8401367E-4
-0.0011587549
-0.0019258667
-0.0024729786
-0.0013077197
3.9465088E-4
0.0025117628
0.0018365039
0.003768357
0.00402021
0.003492063
0.0027815455
0.0035433983
0.0022905103
-0.0010218604
-4.1860352E-5
-4.8423096E-4
-0.003486084
-0.0030355663
-0.0039174194
-0.0047616432
-0.004415867
-0.0014806079
-0.0018553492
-0.0017700903
1.9990967E-4
-0.001062461
3.1753906E-4
4.999097E-4
0.0025370214
-0.0012777197
0.0014370215
0.0013317626
9.17627E-5
-0.0010706079
-0.0024077196
-0.0022748315
-0.003324314
-0.003576167
-0.0032756494
-0.0038575025
-0.0026346142
-0.004328838
-0.0033983204
-0.001060691
9.916797E-4
-3.832031E-5
3.416797E-4
0.003401162
0.004405386
0.003997239
0.0032667213
0.0037085742
0.0016233154
4.8568603E-4
-9.966845E-4
-0.0015514258
-0.0026509082
-0.0026903907
-0.004132244
-0.0038340967
-0.0038959498
-0.005002544
-0.0028920264
-0.0022091381
-0.0018738793
-6.5625E-4
0.0023708618
0.0042450856
0.0034669384
0.0053435327
0.002933015
0.0010853858
0.0015601269
0.0010624976
-0.001059873
-2.7987306E-4
-0.002336985
-0.0045212083
-0.0025283203
-8.306909E-4
-0.0018754321
-0.0011701733
-0.0018349146
-5.2728516E-4
0.0015574561
4.3982666E-4
5.7219726E-4
0.0018869385
2.5693848E-4
8.6930906E-4
9.716797E-4
0.0012164209
0.0010987915
-3.835791E-4
-4.659497E-4
-0.0012006909
-0.0010230616
-0.0023601733
-0.0019172851
-0.002644397
-0.0020615088
-0.0031509912
-0.001988103
-0.0028875854
-0.0038394385
-0.0023265502
-9.489209E-4
0.0028705616
0.0055371555
0.0063661207
0.0048503443
0.0037021972
2.1219726E-4
-0.0023549146
-0.00701625
-0.012946551
-0.010539738
-0.0116452975
-0.011763227
-0.011278787
-0.0023758984
-0.0019030103
-0.002260122
-5.824927E-4
0.001984619
0.003776472
0.003708325
0.0029878076
0.00304729
0.003969143
0.003960996
0.0026381079
-2.4189209E-4
-6.542627E-4
-4.566333E-4
-2.466333E-4
4.5573732E-4
8.081079E-4
-9.142627E-4
-0.0010266333
-0.0011190039
-0.0015037451
-0.0029732275
-8.3559816E-4
3.6440184E-4
7.3677243E-4
0.0015915136
0.002810996
0.003502849
0.004004702
0.004478926
0.001813667
0.0011160376
0.0021631494
0.0015778906
3.9026124E-4
-0.0021668505
-0.003156333
-0.0044805566
-0.0033700392
-0.004121892
-0.003953745
-0.002620857
-0.00359271
-0.0016374511
4.949194E-4
5.3729006E-4
0.0021044018
0.0027838843
0.0037657374
0.0028052197
0.004037073
0.003336555
0.0014712964
2.5129638E-4
9.73667E-4
-5.787036E-4
-0.002778186
-0.0019152978
-0.001810039
-0.0012747803
-0.0019318921
-0.0015266333
-0.0010290039
7.033667E-4
0.0035052197
0.0028347021
0.003706555
0.0049631493
0.0052897437
0.004433967
0.0035258203
0.0017805615
0.0015653027
9.4767334E-4
-0.0015870678
-0.0019241797
-0.0029036622
-0.0032531444
-0.0024502564
-0.0029097388
-0.0036015918
-0.0025187037
-0.0017634449
-8.458154E-4
-3.7581543E-4
-8.581543E-5
0.002993667
0.00380552
0.0028450023
0.0050515966
0.005278191
0.003630044
0.0023771557
0.001391897
-0.0017728442
-0.0049394383
-0.012509739
-0.008958186
-0.0030876684
-2.3766846E-4
-9.3003904E-4
-0.0013447803
-9.771509E-4
-5.715088E-5
0.0011975904
0.0024047021
0.0042089256
0.0033084082
0.0048126318
0.005249226
0.0016839673
-3.160327E-4
-0.001380774
7.715967E-4
-0.001090774
-5.731445E-4
-0.0012978858
-0.0020549975
-0.00317448
-0.004076333
-0.0052829273
-0.0041347803
-0.0034566333
-7.090039E-4
5.433667E-4
0.002742849
0.0027123315
0.0011770728
0.001731814
0.0016965552
0.002373667
0.0011484082
-6.439624E-4
0.0011307788
7.831494E-4
-0.002826333
-0.0021834448
-0.0029729272
-0.002560039
-0.0016147803
-0.002151892
-0.0041537452
-0.0037355982
-0.0024727099
2.8729005E-4
0.0017420312
0.0013767724
0.0023338844
0.004478108
0.0029575904
0.0020847023
-6.376685E-4
6.2470214E-4
-0.0020724097
-0.0021195214
-0.0027690039
-0.0018337452
-0.0042079687
-0.0038898217
-0.005036416
-0.003598269
-0.0035401222
-0.004694346
-0.0042085694
2.7143068E-4
0.0022385425
0.0036803954
0.0061293603
0.004513584
0.0055001783
0.0051867724
0.0043109963
0.003692849
0.0016075904
8.0996094E-4
-0.0017447802
-0.0031942627
-0.0048084864
-0.0041303392
-0.0036521924
-0.0035240455
-0.0029735279
-0.0024206396
-0.0014853808
-0.0010977514
-0.0012324926
0.002324619
0.0052112136
0.0049378076
0.0046120314
0.0016367724
6.0914306E-4
0.002506255
-2.7374513E-4
-8.6611573E-4
-1.6611573E-4
-0.0017708569
-0.006389822
-0.006338787
-0.0034406397
-0.0062496043
-0.011425164
-0.003284646
-0.0010370166
0.0016477247
0.0040095774
0.0043738014
0.0050303955
0.004594619
0.0049912133
0.004245437
0.0043696607
0.0016344019
9.267725E-4
9.491431E-4
4.1151367E-4
-7.8085694E-4
-7.4322755E-4
-6.1559817E-4
-0.0027250806
-0.003274563
-0.003866416
-0.0030358986
-0.0011806396
6.21731E-4
8.341016E-4
0.003323584
0.003765437
0.0050420314
0.0030515136
0.0022386254
0.002838108
0.0010904785
-1.3952148E-4
-0.0015342627
-7.366333E-4
-0.0015413745
-0.0017661158
-0.003917969
-0.0061269337
-0.0059758984
-0.0032553808
-0.001470122
-8.124927E-4
6.7507324E-5
0.0017522485
0.0014869898
0.0046412135
0.004565437
0.00368729
0.0026767724
0.0036086254
0.0019957372
0.0019328492
0.0027323316
2.0233155E-4
-0.004641892
-0.0029513745
-0.0027608569
-0.00347271
-0.0050293044
-0.004643528
-0.0038953808
-0.0034872338
-0.0023543458
0.0011703955
0.0017151367
0.003324619
0.004158843
0.0036906959
0.0027801783
0.00195729
0.0015120313
0.0011667724
9.89143E-4
-0.0021379688
-0.003317451
-0.0032769337
-0.0035587866
-0.003018269
-0.0027177515
-0.0024948632
-0.0011896045
-0.0012943457
-5.667163E-4
-8.671631E-5
0.0012080249
0.0019551367
0.0031246191
0.004156472
0.0016412134
-8.2115724E-4
-0.002148269
-0.0019253809
-0.0021924926
-0.0014972339
-0.0024043457
-0.0047685695
-0.004452793
-0.0042770165
-0.005023611
-0.0041154637
-0.0031149462
-2.049463E-4
0.0016697949
0.0017645361
0.0014092773
0.0031287598
0.005375354
0.005361948
0.0050685424
0.0031980248
0.0033375074
8.898779E-4
-7.012207E-5
-0.0021472338
-0.0029167163
-0.0055133104
-0.0055099046
-0.0033593872
-0.0026488695
-0.0021559815
-2.6598145E-4
-0.0017807226
-3.0722655E-5
0.0023163892
0.0035882422
0.0030477247
0.003197207
0.0064185425
0.008064619
0.0073683253
0.0036501782
6.625488E-4
-3.1745117E-4
-5.398218E-4
-0.001834563
-0.0011169337
-0.0031264161
-0.0030158984
-0.0037177515
-0.0033172339
-0.0016219751
-5.243457E-4
5.6802493E-4
0.0026051367
0.00395699
0.0044512134
0.004845437
0.0068667727
0.008352849
0.0065241847
0.0048984084
0.0043826317
0.0020997436
-9.6262695E-4
-0.0027221094
-0.0029615918
-0.005098186
-0.00563478
-0.0049513746
-0.00656271
-0.005289304
-0.002486416
-0.0015311572
1.7884278E-4
0.0019159546
0.0020730663
0.0027625489
0.0036844017
0.0038962548
0.003908108
0.0029875904
0.0031970728
0.001871814
-8.9055666E-4
-0.0012452978
-0.0024224096
-0.0038942627
-0.005050857
-0.0026803394
-0.0023174512
-0.0028169337
-0.0015516748
8.832519E-5
-5.440454E-4
0.0012906959
0.0028601782
0.006039143
0.005918108
0.0067794435
0.006520779
0.005237373
0.0023244848
0.0033439673
9.763379E-4
-0.0024707739
-0.0013355152
-0.0023626268
-0.0019297388
-0.0020668507
-0.0064058155
-0.009826633
-0.016478786
-0.0043330104
0.0016017309
0.0037535839
0.006222549
0.007103884
0.0073575904
0.007881297
0.009552115
0.008690561
0.007464268
0.0059732324
0.006082197
0.0032816797
-6.006909E-4
-0.0025678028
-0.0026472851
-0.0038791383
-0.0064204736
-0.008336551
-0.008432627
-0.007836333
-0.003848186
4.2418457E-4
0.0025212965
0.0033107789
0.004152632
0.0021397437
5.8211427E-4
-8.002563E-4
-0.0033497387
-0.005306333
-0.005372927
-0.004157151
-0.0018718921
-0.0042461157
-0.001610857
0.002386255
0.007869961
0.009950778
0.010463967
0.011149527
0.013782198
0.013344868
0.01548228
0.017146803
0.0111023635
0.002359475
5.0184573E-4
-2.381543E-4
-0.0011328955
-0.0040747486
-0.0056737135
-0.0072374195
-0.0077011255
-0.008759573
-0.008635649
-0.008441726
-0.0067330617
-0.0047272854
8.6508546E-4
0.0026845678
0.003966421
0.013929091
0.029853916
0.03979956
0.050788388
0.060728036
0.062344797
0.061186817
0.05639461
0.04628922
0.02798693
0.017651455
0.02992628
0.044676144
0.039721787
0.01803868
-0.009562137
-0.020736143
-0.017993037
-0.012993338
-0.018642602
-0.032022167
-0.043689664
-0.044839527
-0.03610332
-0.024239177
0.0057197874
0.044229653
0.08049331
0.11948787
0.14459065
0.15588899
0.14044993
0.10292233
0.07628176
0.041892145
-0.012798157
-0.060045436
-0.090859905
-0.13431187
-0.16123681
-0.15183331
-0.12198734
-0.09170419
-0.055729613
-0.027314954
-0.017791849
-0.025932448
-0.031352013
-0.021750761
-0.02239188
-0.040889893
-0.07529695
-0.09647039
-0.084315896
-0.07496059
-0.061442606
-0.034139283
-0.011174844
0.012695457
0.03833636
0.047765706
0.0568935
0.07075634
0.07591577
0.0765352
0.079294115
0.0878091
0.077020906
0.06679952
0.048933607
0.030078433
0.00977925
-0.031920314
-0.073360264
-0.07241784
-0.055020895
-0.034277573
0.009250874
0.01833777
0.01406281
0.041803192
0.0459178
0.002094912
-0.06462896
-0.13287619
-0.15787165
-0.13822547
-0.115035795
-0.080789454
-0.045241687
-0.01723621
-0.006055176
-0.0061641405
-8.165112E-4
0.008689566
0.015979348
0.019420983
0.0044152075
-0.017649317
-0.013219616
0.018749649
0.060299296
0.100774586
0.12110388
0.11830607
0.082014464
0.024100324
-0.027115017
-0.03940829
-0.018787554
1.24462895E-5
-0.003117036
-0.033211343
-0.056086767
-0.04104478
-0.006413745
0.017400779
0.03835168
0.053449992
0.030184817
-0.010858372
-5.707422E-4
0.031336453
0.049170543
0.052706484
0.05972376
0.07776793
0.085145816
0.082274206
0.058226746
-1.03254395E-4
-0.058918163
-0.08577841
-0.09818659
-0.090821065
-0.06891679
-0.04029243
-0.026675401
-0.027100742
-0.03383742
-0.020101426
-0.001756167
0.007317539
0.003719392
0.003561245
-0.008024831
0.004479392
0.03395607
0.031455636
-0.0071880715
-0.027013414
-0.019212678
-0.009693496
0.005715469
0.022306588
0.023700075
0.012098005
6.40376E-4
-0.010030442
-0.030767636
-0.04222039
-0.041048404
-0.03524982
-0.034326497
-0.0109396875
0.017094836
0.048728924
0.06994939
0.064180896
0.051754467
0.039377738
-0.0029317455
-0.07146695
-0.09055143
-0.08084508
-0.06552132
-0.055154376
-0.051335577
-0.043833073
-0.03457212
-0.021530868
-0.006249834
-0.0016545752
-7.45752E-5
0.0032649073
0.0070762425
0.011031802
0.01121736
0.008623438
0.0022505494
0.0047347727
0.0048389966
0.0044932202
0.0073669264
0.010340115
0.0128604155
0.015760198
0.017787091
0.02233821
0.023721699
0.021560447
0.015177859
0.01353053
0.015357942
0.016420094
0.020214101
0.024419961
0.029844785
0.029787239
0.02726258
0.020036587
0.010469776
0.0030692578
-0.002057854
-0.011233413
-0.018882679
-0.019864313
-0.013716985
-0.008815432
-0.002542544
0.0027469385
0.009477756
0.009558574
0.0056451685
0.008301245
0.010192063
0.013032364
0.012410293
0.0071716285
0.0078753345
0.005834299
0.005853264
0.008761711
0.0145567525
0.015134165
0.0080502415
0.007061577
0.007987654
0.009598471
0.012798772
0.011324331
0.0021014428
-0.011334117
-0.030641312
-0.042374063
-0.029426519
-0.011602078
0.0052745165
0.022223264
0.026888605
0.023362095
0.015009507
0.0039713597
-0.01181657
-0.024062429
-0.029234882
-0.027400225
-0.015980007
-0.0029194898
0.0038223632
0.006743699
0.012341629
0.011207188
-0.005649407
-0.01625156
-0.020745566
-0.019194832
-0.018604096
-0.021210473
-0.015620257
-0.008326333
-0.007460039
-0.007683745
-0.0037355982
-0.0018403394
-0.00105271
0.0038191432
0.0070204786
0.0078441845
0.006413149
0.004687373
0.002444485
0.0033839673
0.009092415
0.011387974
0.010671162
0.011466721
0.0065180566
2.805664E-5
-0.0011666846
-0.0024237963
-0.00422802
-0.0065693553
-0.009237803
-0.008223879
-0.008449956
-0.0096707735
-0.0102439625
-0.008822409
-0.0059913746
-0.0038432276
-9.3559816E-4
0.0056609963
0.008657073
0.0062060375
0.0074097435
0.005476338
0.0033058203
0.0019529321
-7.294385E-4
-0.004233662
-0.0044178856
-0.0036397388
-0.0025368505
-0.0015715918
-0.0020087035
-6.210742E-4
3.0892578E-4
0.0012536669
0.0036055201
0.0071068555
0.0063958205
0.006044785
0.007268491
0.0063774562
0.00430168
0.0019987915
-0.0013759497
-2.7594971E-4
0.0015987915
-1.912085E-4
-0.003200691
-0.005377285
-0.00599625
-0.0026957325
-0.0031652148
-0.005091809
-0.0053284033
-0.0025555152
-0.0038873681
-0.0079534445
-0.005030039
-0.0018971509
-2.0715088E-4
9.284912E-5
0.0010452197
-0.0033342626
-0.002933745
7.6862547E-4
9.109961E-4
-4.6137453E-4
-0.0013461157
-0.0012708569
-5.4322754E-4
-0.0017779687
-0.0010103394
-0.0011450805
-0.0019321924
-6.84563E-4
6.778076E-4
0.0016225488
0.0048067723
0.0053733666
0.004989961
0.006148926
0.00500552
0.004067373
0.002564485
0.001709226
0.0011439673
-6.3840335E-4
-2.840332E-5
-0.0028178857
-0.0038897388
-0.0028792212
-0.0034710742
-0.0029805566
-0.002650039
-0.0022571508
1.6284912E-4
0.0017275903
0.0014723316
0.003131814
0.0045560375
0.0058950023
0.0053215967
0.0034434497
0.0033953027
0.0017600439
0.0016547851
9.271558E-4
-0.0017375854
-0.004311809
-0.0052284035
-0.005877368
-0.0064187036
-0.005625298
-0.005091892
-0.0034037451
-0.004487969
-0.00141271
0.0020044018
0.0046586255
0.0037604785
0.0040323315
0.0039541847
0.002663667
0.0013084082
7.407788E-4
7.331494E-4
-6.992212E-4
-0.0031187036
-0.005595298
-0.0034771508
-0.0014718921
-0.002209004
-0.0023161157
-6.0848636E-4
4.2388428E-4
-9.984863E-4
-7.108569E-4
7.815137E-4
8.338843E-4
0.0012886255
0.0016533667
0.0030328492
0.001919961
-3.0003907E-4
-4.0240967E-4
-1.9240967E-4
-0.0012671509
-0.0023042627
-0.0020613745
-0.0022684864
-0.0036503393
-0.0033698217
-0.001734563
-9.169336E-4
3.3066408E-5
0.0015178076
0.0023649195
0.0024620313
0.0026415137
0.0044057374
0.0034475904
0.004944185
0.0038760377
2.060376E-4
-0.0025210741
-0.002568186
-0.0015229272
-0.0032724098
-0.0043366333
-0.0054232273
-0.0039950805
-0.004739304
-0.001916416
-0.002213528
-5.3589843E-4
-0.0017606396
-0.0015753809
-1.538086E-5
0.0020517309
0.0025288428
0.0047130664
0.003352549
0.0047967723
0.0041086255
0.0015433667
5.157373E-4
-7.966333E-4
-0.002383745
-0.0014184864
-0.0018955981
-0.0034474512
-0.002544563
-0.0022616747
-0.0027211572
-0.0026906396
-0.0014053809
0.0011269897
0.001191731
0.0014264722
0.0027059545
0.0036178075
0.0033372901
0.0031767725
0.0040186257
0.0015733667
-0.0012113745
-8.937451E-4
-8.461157E-4
-0.001470857
-8.232275E-4
-0.0025703392
-0.004854563
-0.0027040455
-0.0038658984
-0.0032553808
-0.0019124927
-0.0018372339
-8.396045E-4
-6.519751E-4
0.0023951367
0.00421936
0.0037612133
0.0037730664
0.0022101782
6.225488E-4
4.949194E-4
-0.0013998218
-0.001864563
-5.269336E-4
-3.269336E-4
-0.0020940455
-0.0018887867
-0.0020158985
-9.38269E-4
-5.706397E-4
-6.1301026E-4
0.0014617309
0.0026388427
0.0036806958
0.0028601782
0.004394402
0.0059233666
0.0036852197
0.0019123316
4.0470215E-4
5.9707277E-4
2.7072754E-5
-1.3292725E-4
1.17072756E-4
-0.0011576684
-0.0012524097
-0.002821892
-0.002349004
-4.4137452E-4
-0.0024384863
-4.8085692E-4
6.115137E-4
-5.108569E-4
8.914307E-5
0.0039009962
0.0043352195
0.002914702
0.0042189257
0.00550552
0.0048997435
0.0018844849
5.068555E-4
3.0685548E-4
-0.0012778857
-0.0010202563
-0.0036221093
-0.0038439624
-0.006002927
-0.0049195215
-0.0025266332
-0.0016813745
-0.0011037451
3.6625488E-4
0.0019733666
0.0035852196
0.0043294434
0.0056784083
0.0049550026
0.004159226
0.003661079
8.934497E-4
-8.289209E-4
-0.0022960326
-0.0016907739
-0.0016755151
-0.0018702564
-0.0030897388
-0.0029292211
-0.001956333
-0.0010787036
9.63667E-4
0.0020407788
0.0028402612
0.0026473731
0.004089226
0.0055258204
0.0048300438
0.005919009
0.0050756033
0.0033050855
0.0010374561
-0.0011372851
-0.0012820264
-0.0034738793
-0.0029133619
-0.0033728443
-0.0018899561
-0.002167068
-6.594385E-4
-0.001111809
-0.0014465502
9.058203E-4
0.0040576733
0.0035695264
0.004916121
0.004922715
0.0041869385
0.0049235327
0.0025906446
0.0011353857
5.6775636E-4
-4.4461427E-4
-0.0010369848
-8.493555E-4
-9.5172605E-4
-0.002418838
-0.0022559497
-0.0010983204
-0.001975432
-0.0014601733
-0.0018349146
-7.672852E-4
0.0024598266
0.003279309
0.003401162
0.003693015
0.0029124976
0.0036943506
0.0022314624
-9.009082E-4
-5.8327883E-4
-0.0011680201
-0.0027475024
-0.0012922436
-0.0020093555
-0.002848838
-0.0045230617
-0.003062544
-0.004034397
-3.5439697E-4
-1.8439697E-4
-3.9676757E-4
0.0015779736
0.0017227149
0.0028821973
0.0040040505
0.0035859032
0.004270127
0.0010824975
5.6486815E-4
-6.9750246E-4
-0.0018522437
-0.0011869848
-0.0014117261
-0.0017464673
-0.0031859498
-0.0049001733
-0.0050567677
-0.00317625
-0.0017309912
-0.0020181031
-6.004736E-4
0.0013942675
0.0040461207
0.004160344
0.0054169386
0.006858274
0.003990127
0.0029796094
3.7960938E-4
-0.0018551318
-0.007176467
-0.010219656
-0.001574397
-0.0017891382
-0.00253625
-0.003678103
-0.004462327
-0.0040941797
-0.0023712914
6.310791E-4
-8.612915E-4
0.0011310792
0.0029905615
0.004284785
0.0032342675
0.0025513794
0.0015261206
4.684912E-4
-4.0387938E-4
5.6849123E-4
7.5086183E-4
-0.010542327
-0.009613144
-0.0039249975
-0.0028144799
-0.0010668506
-0.0021739623
-0.0023610743
-0.0013058154
-8.48186E-4
-3.6818604E-4
-4.8055663E-4
0.0037312964
0.0040231496
0.0027026318
0.0031121143
0.004226338
0.005062932
0.005861897
0.0032613794
0.0024584911
0.0036803442
7.227148E-4
-9.6965575E-4
-8.120264E-4
-0.0022291383
-0.0037609912
-0.0038128442
-0.0051194383
-0.0038812915
-0.002970774
-5.0773924E-5
0.0019463379
0.0038381908
0.005014785
0.0056613795
0.004565603
0.0043998268
0.0031093091
0.0032887915
0.0024159034
5.0827395E-4
-0.0016564673
-0.0031059496
-0.003015432
-0.0027549146
-0.002924397
-0.0017891382
-6.915088E-4
-0.00119625
0.0012284912
6.6086184E-4
0.0022079737
0.0039598267
0.0048340503
0.0054706447
0.0054372386
0.0026767212
0.002133833
0.0012285742
-7.237964E-4
-0.0016485376
-0.0024356495
-0.0028051317
-0.0015098731
-0.0030593555
-0.0038512086
-0.002920691
1.1930908E-4
8.9309084E-5
0.0017740503
0.0016887916
0.002948274
0.0019853858
0.0029848681
0.004649092
0.0047833156
0.0035951685
0.0038870214
0.0025441332
-2.758667E-4
3.441333E-4
-0.0021729786
-0.002832461
-0.0041666846
-0.004710908
-0.0040327613
-0.002279873
-0.0019569849
-0.0014217261
1.08273925E-4
0.0011006446
0.0011130151
0.0031324977
0.0037843506
0.0035362036
0.0030556861
0.0022227978
0.0011251684
4.8753907E-4
3.3753907E-4
-2.9246093E-4
-3.9483156E-4
4.1753906E-4
-0.0017372022
-0.0018019434
-0.004876167
-0.0069575026
-0.004181726
-0.002208838
4.435327E-4
0.001398274
0.0015030152
0.0013277563
0.0035196093
0.0050362037
0.003315686
0.0025627979
0.0023899097
0.002899392
0.0016241333
-0.0014006079
-0.0014053491
-9.077197E-4
-0.0017924609
-0.0033919434
-0.0028614257
-0.0024985375
-0.00329802
-0.0029675025
-0.0012822436
-6.3461426E-4
0.001160127
0.0016848681
0.0039167213
0.0054833153
0.0023404271
0.002337539
0.0034993922
-7.1297854E-4
-8.753491E-4
-0.0011300903
-0.001022461
-6.548315E-4
-0.0013595728
-0.0018866846
-0.003026167
-0.0021332789
-2.8327882E-4
-3.432788E-4
0.0015214625
0.0025385742
0.0030480567
0.0034499096
0.0036917627
0.0057307277
0.0076544336
0.0043886574
0.002405769
8.081396E-4
5.705103E-4
-0.0019266015
-0.0036984547
-0.0023255665
-0.0018003077
-0.0035921605
-0.0059011253
-0.0054277196
-0.0046719434
-0.0026514258
-0.0036832788
-0.0022403905
0.0018143506
0.002693833
0.003695686
0.004107539
0.004511763
0.0041236156
0.0038054688
0.00183021
-4.1216065E-4
-7.145312E-4
-0.0023316431
-0.002368755
-0.0031082374
-0.0034200903
-0.0026595728
-0.0024466845
-0.0034285376
-0.0011932788
-4.656494E-4
1.1435059E-4
0.0021014623
0.0034533155
0.00515991
0.004454133
0.0033636158
0.0023507276
0.00291021
0.0020273218
-7.150488E-4
-6.774194E-4
3.7258057E-4
-0.0014921606
-0.0024692724
-0.0032687548
-0.0019658667
-0.0045500905
-0.006329055
-0.0028385376
2.414624E-4
3.93833E-4
0.0022909448
0.0025680566
0.0042722803
0.0065236157
0.007207322
0.005003916
0.0027933985
9.857691E-4
0.0022128809
-1.5711914E-4
-0.0013218604
-0.0021289722
-0.002506084
-0.0011808252
-0.002557937
-0.0020150489
-0.0012497901
-9.2216063E-4
-0.0014969019
9.854687E-4
0.002904951
0.0029544337
0.0027439161
0.0014686573
7.010278E-4
8.4339845E-4
0.003222881
0.0026299928
1.8999267E-4
-4.8237792E-4
-0.0017371192
-0.0016618604
-0.0024289722
-0.003630825
-0.0033903075
-0.0021374195
-0.0055340137
-0.013174314
-0.0010466846
0.0020604273
0.0041522803
0.004456504
0.0067378394
0.005726804
0.005985769
0.0040876223
0.004149475
0.002106587
0.0025336987
0.0014484399
0.0018431812
8.2555175E-4
-0.0034363014
-0.0032857836
-9.781542E-4
-9.805249E-4
-0.0044047483
-0.0021618605
6.813965E-5
-5.44231E-4
0.0021128808
0.004004734
0.0048289574
0.0045831813
0.006372146
0.005861111
0.0042453343
0.0023724462
0.0016271875
-3.528125E-4
3.8955812E-4
-0.0012551831
-0.002222295
-0.0018894067
-0.0026165186
-0.002746001
-0.0021531128
-0.001437854
5.345166E-4
5.468872E-4
0.002563999
0.0046582227
0.0060671875
0.0052737817
0.005360376
0.003882229
0.0043364526
0.0042006765
0.002187788
3.1778807E-4
1.9778809E-4
-2.522119E-4
-0.0015169531
-0.0010093238
-0.0021864355
-0.003145918
-0.0024030297
-0.0020601416
2.198584E-4
0.0021669702
0.002324082
0.0041883057
0.0056549
0.0048391237
0.0051157176
0.0030652003
0.0027746826
0.0011794239
0.001214165
2.6416505E-4
-8.082056E-4
-0.0017229468
-0.00458717
-0.0032566527
-0.0021937646
-0.0023608764
-0.002800359
-0.0029398412
-0.0016245826
-0.0011993237
-2.2932373E-4
6.067627E-5
0.0031201588
0.0059991237
0.0053657177
0.005632312
0.0033717945
0.0022989062
0.0032583887